Point ID,Ma,mag(U),p,Points_0,Points_1,Points_2,Points_Magnitude,T
0,0.660643,219.31,102587,0.0184596,0,0.166667,0.167686,274.264
1,0.660771,219.348,102571,0,0,0.166667,0.166667,274.251
2,0.660388,219.235,102617,0.0361669,0,0.166667,0.170546,274.287
3,0.66005,219.134,102653,0.0531526,0,0.166667,0.174937,274.315
4,0.659573,218.991,102702,0.0694461,0,0.166667,0.180556,274.353
5,0.658968,218.809,102762,0.0850756,0,0.166667,0.187125,274.401
6,0.65821,218.58,102835,0.100068,0,0.166667,0.1944,274.458
7,0.65729,218.302,102923,0.11445,0,0.166667,0.202179,274.528
8,0.656189,217.969,103027,0.128245,0,0.166667,0.210296,274.61
9,0.654891,217.576,103149,0.141478,0,0.166667,0.218618,274.705
10,0.653376,217.116,103289,0.154172,0,0.166667,0.227039,274.816
11,0.65162,216.583,103451,0.166349,0,0.166667,0.235478,274.943
12,0.649601,215.969,103637,0.178029,0,0.166667,0.243869,275.089
13,0.647291,215.266,103848,0.189234,0,0.166667,0.252165,275.255
14,0.644662,214.464,104086,0.199981,0,0.166667,0.260327,275.442
15,0.641679,213.554,104356,0.210291,0,0.166667,0.268328,275.654
16,0.63831,212.524,104660,0.220181,0,0.166667,0.276147,275.891
17,0.634508,211.36,105000,0.229667,0,0.166667,0.283769,276.158
18,0.630233,210.049,105382,0.238767,0,0.166667,0.291183,276.455
19,0.625421,208.571,105810,0.247496,0,0.166667,0.298383,276.789
20,0.620017,206.907,106288,0.25587,0,0.166667,0.305364,277.16
21,0.613929,205.029,106825,0.263902,0,0.166667,0.312125,277.576
22,0.60708,202.911,107425,0.271606,0,0.166667,0.318666,278.04
23,0.599324,200.507,108103,0.278997,0,0.166667,0.324988,278.562
24,0.590545,197.776,108863,0.286087,0,0.166667,0.331094,279.146
25,0.580489,194.64,109733,0.292888,0,0.166667,0.336988,279.811
26,0.56896,191.029,110718,0.299411,0,0.166667,0.342673,280.562
27,0.555422,186.774,111870,0.305669,0,0.166667,0.348154,281.435
28,0.539508,181.746,113205,0.311671,0,0.166667,0.353436,282.444
29,0.519768,175.46,114795,0.317429,0,0.166667,0.358524,283.625
30,0.496775,168.104,116666,0.322953,0,0.166667,0.363423,285.003
31,0.465219,157.776,118227,0.328251,0,0.166667,0.368139,286.277
32,0.436019,148.546,121585,0.333333,0,0.166667,0.372678,288.913
33,0.462124,157.469,121584,0.338281,0.00202571,0.166667,0.377115,289.118
34,0.520347,176.413,117146,0.343253,0.00399023,0.166667,0.381597,286.111
35,0.564108,190.451,113730,0.348249,0.00589326,0.166667,0.386121,283.727
36,0.60302,202.706,110365,0.353268,0.00773451,0.166667,0.390686,281.263
37,0.636545,213.079,107285,0.358309,0.00951371,0.166667,0.395289,278.902
38,0.666245,222.117,104441,0.363372,0.0112306,0.166667,0.399929,276.642
39,0.693077,230.156,101771,0.368456,0.0128848,0.166667,0.404603,274.474
40,0.717647,237.42,99263,0.37356,0.0144763,0.166667,0.409309,272.412
41,0.740382,244.06,96904.4,0.378682,0.0160046,0.166667,0.414046,270.451
42,0.761772,250.24,94670.7,0.383824,0.0174696,0.166667,0.418812,268.577
43,0.782148,256.066,92532.6,0.388983,0.0188711,0.166667,0.423606,266.766
44,0.801892,261.66,90469.3,0.394159,0.0202088,0.166667,0.428425,265.001
45,0.820715,266.944,88508.9,0.399351,0.0214826,0.166667,0.433267,263.304
46,0.838441,271.865,86651.1,0.404559,0.0226922,0.166667,0.438133,261.675
47,0.855147,276.45,84885.9,0.409781,0.0238375,0.166667,0.443019,260.105
48,0.871488,280.902,83191.2,0.415016,0.0249183,0.166667,0.447926,258.574
49,0.888154,285.443,81558.2,0.420265,0.0259344,0.166667,0.45285,257.076
50,0.905259,290.111,79985.6,0.425526,0.0268857,0.166667,0.457791,255.611
51,0.922208,294.671,78392,0.430798,0.027772,0.166667,0.462748,254.106
52,0.93927,299.224,76803.6,0.436081,0.0285931,0.166667,0.46772,252.586
53,0.957004,304.003,75319.7,0.441373,0.0293491,0.166667,0.472704,251.146
54,0.974563,308.681,73838.2,0.446674,0.0300397,0.166667,0.477701,249.687
55,0.991091,312.913,72240.9,0.451984,0.0306648,0.166667,0.482708,248.094
56,1.00785,317.222,70729.3,0.4573,0.0312244,0.166667,0.487726,246.567
57,1.02569,321.909,69347.2,0.462624,0.0317184,0.166667,0.492752,245.15
58,1.04302,326.346,67907.3,0.467953,0.0321467,0.166667,0.497786,243.653
59,1.05887,330.205,66373.7,0.473286,0.0325091,0.166667,0.502827,242.036
60,1.07521,334.266,64974.6,0.478624,0.0328058,0.166667,0.507873,240.541
61,1.09197,338.506,63709,0.483965,0.0330366,0.166667,0.512925,239.17
62,1.10833,342.537,62392.3,0.489309,0.0332014,0.166667,0.51798,237.724
63,1.12386,346.224,61029.6,0.494654,0.0333004,0.166667,0.523039,236.204
64,1.13991,350.081,59736.5,0.5,0.0333333,0.166667,0.528099,234.742
65,1.15618,354.011,58507.9,0.505346,0.0333004,0.166667,0.533162,233.334
66,1.17221,357.834,57294.3,0.510691,0.0332014,0.166667,0.538224,231.926
67,1.18761,361.437,56102.4,0.516035,0.0330366,0.166667,0.543287,230.521
68,1.20292,364.997,54946.4,0.521376,0.0328058,0.166667,0.548349,229.139
69,1.21794,368.465,53831.4,0.526714,0.0325091,0.166667,0.553409,227.788
70,1.23274,371.864,52760.5,0.532048,0.0321467,0.166667,0.558467,226.474
71,1.24695,375.116,51760.5,0.537376,0.0317184,0.166667,0.563522,225.229
72,1.26024,378.121,50829.3,0.5427,0.0312244,0.166667,0.568573,224.053
73,1.27407,381.188,49848.4,0.548016,0.0306648,0.166667,0.57362,222.785
74,1.19977,363.458,54657.1,0.553326,0.0300397,0.166667,0.578662,228.913
75,0.988693,310.571,70662.4,0.558627,0.0293491,0.166667,0.583698,247.217
76,0.856474,276.12,81698.3,0.563919,0.0285931,0.166667,0.588728,258.673
77,0.858624,276.695,81833.5,0.569202,0.027772,0.166667,0.593751,258.454
78,0.859625,277.009,81783.7,0.574474,0.0268857,0.166667,0.598766,258.438
79,0.851656,274.757,82400.1,0.579735,0.0259344,0.166667,0.603774,259.035
80,0.839351,271.264,83370.2,0.584984,0.0249183,0.166667,0.608773,259.949
81,0.824122,266.914,84596.8,0.590219,0.0238375,0.166667,0.613763,261.069
82,0.807121,262.026,85990.5,0.595441,0.0226922,0.166667,0.618743,262.307
83,0.788557,256.64,87508.6,0.600649,0.0214826,0.166667,0.623713,263.622
84,0.768902,250.868,89059.2,0.605841,0.0202088,0.166667,0.628673,264.941
85,0.748728,244.901,90644.8,0.611017,0.0188711,0.166667,0.633621,266.277
86,0.727407,238.563,92340.8,0.616176,0.0174696,0.166667,0.638558,267.703
87,0.705043,231.888,94169,0.621318,0.0160046,0.166667,0.643482,269.235
88,0.681664,224.872,96117,0.626441,0.0144763,0.166667,0.648394,270.857
89,0.657382,217.543,98185,0.631544,0.0128848,0.166667,0.653293,272.563
90,0.631776,209.756,100391,0.636628,0.0112306,0.166667,0.658179,274.36
91,0.604421,201.375,102780,0.641691,0.00951371,0.166667,0.66305,276.283
92,0.575115,192.313,105329,0.646732,0.00773451,0.166667,0.667907,278.316
93,0.543726,182.5,108007,0.651751,0.00589326,0.166667,0.67275,280.414
94,0.510617,172.043,110799,0.656747,0.00399023,0.166667,0.677577,282.571
95,0.471295,159.293,112904,0.661719,0.00202571,0.166667,0.682389,284.344
96,0.430395,146.242,116730,0.666667,0,0.166667,0.687184,287.45
97,0.438517,149.319,118095,0.671749,0,0.166667,0.692116,288.641
98,0.478644,162.51,115580,0.677047,0,0.166667,0.697259,286.907
99,0.504942,171.091,113907,0.682571,0,0.166667,0.702624,285.748
100,0.52787,178.478,112198,0.688329,0,0.166667,0.708219,284.522
101,0.545829,184.19,110703,0.694331,0,0.166667,0.714054,283.412
102,0.560158,188.689,109383,0.700589,0,0.166667,0.720141,282.4
103,0.571709,192.265,108215,0.707112,0,0.166667,0.726489,281.475
104,0.581233,195.184,107218,0.713913,0,0.166667,0.73311,280.657
105,0.588995,197.544,106396,0.721003,0,0.166667,0.740015,279.957
106,0.595575,199.535,105709,0.728393,0,0.166667,0.747218,279.352
107,0.601288,201.263,105138,0.736098,0,0.166667,0.754731,278.837
108,0.606399,202.813,104654,0.74413,0,0.166667,0.762567,278.393
109,0.611065,204.232,104240,0.752504,0,0.166667,0.77074,278.01
110,0.615341,205.537,103879,0.761233,0,0.166667,0.779265,277.673
111,0.619275,206.74,103560,0.770333,0,0.166667,0.788156,277.374
112,0.622896,207.847,103274,0.779819,0,0.166667,0.797431,277.105
113,0.626223,208.866,103018,0.789709,0,0.166667,0.807105,276.862
114,0.629281,209.803,102789,0.800019,0,0.166667,0.817195,276.642
115,0.632092,210.665,102585,0.810766,0,0.166667,0.82772,276.445
116,0.634678,211.459,102405,0.821971,0,0.166667,0.838698,276.268
117,0.637055,212.19,102246,0.833651,0,0.166667,0.850148,276.11
118,0.63924,212.863,102104,0.845828,0,0.166667,0.862092,275.966
119,0.641242,213.479,101978,0.858522,0,0.166667,0.87455,275.836
120,0.643077,214.045,101866,0.871755,0,0.166667,0.887544,275.721
121,0.644763,214.567,101768,0.88555,0,0.166667,0.901098,275.619
122,0.646315,215.047,101681,0.899932,0,0.166667,0.915235,275.527
123,0.647747,215.491,101604,0.914924,0,0.166667,0.929981,275.445
124,0.649081,215.906,101535,0.930554,0,0.166667,0.945361,275.369
125,0.650352,216.302,101474,0.946847,0,0.166667,0.961404,275.301
126,0.651543,216.666,101412,0.963833,0,0.166667,0.978137,275.221
127,0.652931,217.098,101436,0.98154,0,0.166667,0.99559,275.146
128,0.653747,217.359,101496,1,0,0.166667,1.01379,275.119
